#                    1                    2                    3                    4                    5                    6                    7                    8                    9
#               Time |               Ekin |               Epot |               Etot |      === Energy ===>
#               [fs] |               [eV] |               [eV] |               [eV] |               [eV] |
   0.0000000000000E+00  0.4021514738336E+00  0.6731028796141E+01  0.7133180269975E+01  0.2134196711136E+00  0.2774849804608E+01  0.2774849804608E+01  0.2774849825492E+01  0.6731028796141E+01
   0.5000000000000E+00  0.3422471257308E+00  0.6791522851026E+01  0.7133769976757E+01  0.2797223843554E+00  0.2831633012936E+01  0.2831633012935E+01  0.2831633034057E+01  0.6791522851026E+01
   0.1000000000000E+01  0.2867564914175E+00  0.6847807757095E+01  0.7134564248513E+01  0.3474907006191E+00  0.2886190817148E+01  0.2886190817148E+01  0.2886190840061E+01  0.6847807757095E+01
   0.1500000000000E+01  0.2497579992124E+00  0.6885585075077E+01  0.7135343074290E+01  0.4024435413867E+00  0.2924472749803E+01  0.2924472749804E+01  0.2924472776034E+01  0.6885585075077E+01
   0.2000000000000E+01  0.2434629589077E+00  0.6892225000355E+01  0.7135687959263E+01  0.4323292532954E+00  0.2934181281760E+01  0.2934181281760E+01  0.2934181312716E+01  0.6892225000355E+01
   0.2500000000000E+01  0.2724508275209E+00  0.6862920516760E+01  0.7135371344281E+01  0.4330995985767E+00  0.2910919782651E+01  0.2910919782651E+01  0.2910919819968E+01  0.6862920516760E+01
   0.3000000000000E+01  0.3308672603967E+00  0.6803784131251E+01  0.7134651391648E+01  0.4119879076539E+00  0.2861285540927E+01  0.2861285540926E+01  0.2861285585685E+01  0.6803784131251E+01
   0.3500000000000E+01  0.4060871030010E+00  0.6727946245452E+01  0.7134033348453E+01  0.3835479162589E+00  0.2798987964707E+01  0.2798987964707E+01  0.2798988018736E+01  0.6727946245452E+01
   0.4000000000000E+01  0.4859427719841E+00  0.6647881668123E+01  0.7133824440107E+01  0.3618811073003E+00  0.2737180051898E+01  0.2737180051898E+01  0.2737180117299E+01  0.6647881668123E+01
   0.4500000000000E+01  0.5636998234637E+00  0.6570286740166E+01  0.7133986563630E+01  0.3553985198796E+00  0.2683313210028E+01  0.2683313210028E+01  0.2683313288254E+01  0.6570286740166E+01
   0.5000000000000E+01  0.6382728965452E+00  0.6496019110166E+01  0.7134292006711E+01  0.3666898592052E+00  0.2639039823174E+01  0.2639039823174E+01  0.2639039917682E+01  0.6496019110166E+01
   0.5500000000000E+01  0.7114611929138E+00  0.6423078929989E+01  0.7134540122903E+01  0.3954675001158E+00  0.2603167183726E+01  0.2603167183726E+01  0.2603167297985E+01  0.6423078929989E+01
   0.6000000000000E+01  0.7851643424132E+00  0.6349505693462E+01  0.7134670035875E+01  0.4414596015175E+00  0.2574515884998E+01  0.2574515884998E+01  0.2574516021288E+01  0.6349505693462E+01
   0.6500000000000E+01  0.8603314259367E+00  0.6274418557743E+01  0.7134749983680E+01  0.5054702554802E+00  0.2552956422574E+01  0.2552956422574E+01  0.2552956586955E+01  0.6274418557743E+01
   0.7000000000000E+01  0.9378248692541E+00  0.6197100915173E+01  0.7134925784427E+01  0.5884219287070E+00  0.2538451622984E+01  0.2538451622984E+01  0.2538451819314E+01  0.6197100915173E+01
   0.7500000000000E+01  0.1020275694429E+01  0.6115025871411E+01  0.7135301565840E+01  0.6892990893077E+00  0.2529031281351E+01  0.2529031281351E+01  0.2529031515507E+01  0.6115025871411E+01
   0.8000000000000E+01  0.1113365300905E+01  0.6022460661685E+01  0.7135825962591E+01  0.8035691334892E+00  0.2519327144034E+01  0.2519327144033E+01  0.2519327423793E+01  0.6022460661685E+01
   0.8500000000000E+01  0.1224944559255E+01  0.5911300691618E+01  0.7136245250873E+01  0.9237511088677E+00  0.2501305289405E+01  0.2501305289405E+01  0.2501305620624E+01  0.5911300691618E+01
   0.9000000000000E+01  0.1361466429174E+01  0.5774744859652E+01  0.7136211288826E+01  0.1042771138111E+01  0.2467848446683E+01  0.2467848446682E+01  0.2467848838322E+01  0.5774744859652E+01
   0.9500000000000E+01  0.1523343679847E+01  0.5612185458110E+01  0.7135529137956E+01  0.1158542377283E+01  0.2417600046746E+01  0.2417600046747E+01  0.2417600509237E+01  0.5612185458110E+01
   0.1000000000000E+02  0.1702610117124E+01  0.5431761639917E+01  0.7134371757041E+01  0.1276269270848E+01  0.2357507754544E+01  0.2357507754545E+01  0.2357508300970E+01  0.5431761639917E+01
